Magnetic field [a.u]	Energies [a.u]
0e0	-2.0000000000000004e0	-2.0000000000000004e0	1e0	1e0	1.0000000000000002e0	1.0000000000000002e0
1.001001001001001e0	-2.0018095151345934e0	-1.998205929051832e0	9.951951951951952e-1	9.984061292520319e-1	1.0016093149343932e0	1.0048048048048048e0
2.002002002002002e0	-2.003634421775174e0	-1.9964273547319966e0	9.903903903903903e-1	9.968277551323972e-1	1.0032340213747735e0	1.0096096096096097e0
3.0030030030030033e0	-2.005474667009527e0	-1.9946643292370982e0	9.855855855855856e-1	9.952649298376991e-1	1.0048740664089268e0	1.0144144144144145e0
4.004004004004004e0	-2.0073301977003832e0	-1.9929169045116288e0	9.807807807807808e-1	9.937177053124298e-1	1.0065293968995825e0	1.0192192192192193e0
5.005005005005005e0	-2.0092009604921057e0	-1.9911851322411402e0	9.75975975975976e-1	9.921861332421412e-1	1.0081999594911046e0	1.024024024024024e0
6.0060060060060065e0	-2.011086901817351e0	-1.989469063845394e0	9.711711711711711e-1	9.906702650465953e-1	1.0098857006161501e0	1.0288288288288288e0
7.007007007007008e0	-2.012987967903698e0	-1.9877687504714887e0	9.663663663663664e-1	9.891701518728901e-1	1.0115865665022967e0	1.0336336336336336e0
8.008008008008009e0	-2.014904104780231e0	-1.9860842429869647e0	9.615615615615616e-1	9.876858445885666e-1	1.0133025031786298e0	1.0384384384384384e0
9.00900900900901e0	-2.0168352582841e0	-1.9844155919728983e0	9.567567567567568e-1	9.862173937747e-1	1.0150334564822985e0	1.0432432432432432e0
1.001001001001001e1	-2.0187813740670353e0	-1.9827628477169692e0	9.519519519519519e-1	9.847648497189718e-1	1.0167793720650329e0	1.048048048048048e0
1.1011011011011012e1	-2.020742397601822e0	-1.9811260602065304e0	9.471471471471471e-1	9.833282624087325e-1	1.0185401953996198e0	1.052852852852853e0
1.2012012012012013e1	-2.022718274188745e0	-1.9795052791216405e0	9.423423423423424e-1	9.819076815240433e-1	1.0203158717863423e0	1.0576576576576577e0
1.3013013013013014e1	-2.0247089489619796e0	-1.9779005538281154e0	9.375375375375375e-1	9.805031564307182e-1	1.0221063463593771e0	1.0624624624624626e0
1.4014014014014016e1	-2.026714366895948e0	-1.9763119333705457e0	9.327327327327327e-1	9.791147361733479e-1	1.0239115640931455e0	1.0672672672672672e0
1.5015015015015017e1	-2.0287344728116303e0	-1.9747394664653175e0	9.279279279279279e-1	9.777424694683208e-1	1.0257314698086275e0	1.072072072072072e0
1.6016016016016017e1	-2.030769211382828e0	-1.973183201493639e0	9.231231231231232e-1	9.763864046968419e-1	1.0275660081796247e0	1.0768768768768768e0
1.7017017017017018e1	-2.0328185271423873e0	-1.9716431864945383e0	9.183183183183183e-1	9.75046589897941e-1	1.0294151237389837e0	1.0816816816816817e0
1.801801801801802e1	-2.0348823644883693e0	-1.9701194691578847e0	9.135135135135135e-1	9.737230727614884e-1	1.0312787608847658e0	1.0864864864864865e0
1.901901901901902e1	-2.0369606676901806e0	-1.9686120968174028e0	9.087087087087087e-1	9.724159006212066e-1	1.0331568638863766e0	1.0912912912912913e0
2.002002002002002e1	-2.039053380894644e0	-1.9671211164436802e0	9.039039039039038e-1	9.711251204476842e-1	1.0350493768906395e0	1.0960960960960962e0
2.1021021021021024e1	-2.04116044813203e0	-1.965646574637196e0	8.99099099099099e-1	9.698507788414004e-1	1.0369562439278255e0	1.100900900900901e0
2.2022022022022025e1	-2.043281813322034e0	-1.9641885176213474e0	8.942942942942943e-1	9.685929220257514e-1	1.0388774089176291e0	1.1057057057057058e0
2.3023023023023026e1	-2.0454174202796986e0	-1.9627469912354816e0	8.894894894894895e-1	9.673515958400859e-1	1.040812815675094e0	1.1105105105105104e0
2.4024024024024026e1	-2.0475672127212907e0	-1.9613220409279537e0	8.846846846846846e-1	9.661268457327583e-1	1.0427624079164857e0	1.1153153153153152e0
2.5025025025025027e1	-2.0497311342701168e0	-1.9599137117491818e0	8.798798798798799e-1	9.64918716754187e-1	1.0447261292651118e0	1.12012012012012e0
2.6026026026026027e1	-2.051909128462296e0	-1.9585220483447312e0	8.750750750750751e-1	9.63727253549936e-1	1.0467039232570907e0	1.124924924924925e0
2.7027027027027028e1	-2.0541011387524652e0	-1.9571470949484024e0	8.702702702702703e-1	9.62552500353808e-1	1.0486957333470597e0	1.1297297297297297e0
2.8028028028028032e1	-2.056307108519441e0	-1.9557888953753566e0	8.654654654654654e-1	9.613945009809621e-1	1.0507015029138351e0	1.1345345345345346e0
2.9029029029029033e1	-2.058526981071817e0	-1.9544474930152473e0	8.606606606606606e-1	9.602532988210533e-1	1.0527211752660115e0	1.1393393393393394e0
3.0030030030030034e1	-2.060760699653515e0	-1.9531229308253863e0	8.558558558558558e-1	9.591289368313927e-1	1.0547546936475085e0	1.1441441441441442e0
3.1031031031031034e1	-2.06300820744926e0	-1.9518152513239353e0	8.51051051051051e-1	9.580214575301411e-1	1.0568020012430541e0	1.148948948948949e0
3.2032032032032035e1	-2.065269447590026e0	-1.950524496583117e0	8.462462462462462e-1	9.569309029895237e-1	1.0588630411836197e0	1.1537537537537537e0
3.3033033033033036e1	-2.0675443631583947e0	-1.9492507082224795e0	8.414414414414414e-1	9.558573148290859e-1	1.0609377565517881e0	1.1585585585585585e0
3.4034034034034036e1	-2.069832897193875e0	-1.947993927402165e0	8.366366366366367e-1	9.548007342089715e-1	1.0630260903870685e0	1.1633633633633633e0
3.503503503503504e1	-2.072134992698157e0	-1.9467541948162397e0	8.318318318318318e-1	9.537612018232469e-1	1.0651279856911502e0	1.1681681681681682e0
3.603603603603604e1	-2.0744505926403045e0	-1.9455315506860504e0	8.27027027027027e-1	9.527387578932579e-1	1.0672433854330972e0	1.172972972972973e0
3.703703703703704e1	-2.07677963996189e0	-1.9443260347536218e0	8.222222222222222e-1	9.517334421610291e-1	1.0693722325544823e0	1.1777777777777778e0
3.803803803803804e1	-2.0791220775820705e0	-1.9431376862750962e0	8.174174174174174e-1	9.507452938827039e-1	1.0715144699744625e0	1.1825825825825826e0
3.903903903903904e1	-2.0814778484025993e0	-1.9419665440142264e0	8.126126126126125e-1	9.497743518220343e-1	1.0736700405947914e0	1.1873873873873875e0
4.004004004004004e1	-2.083846895312781e0	-1.940812646235904e0	8.078078078078078e-1	9.488206542439119e-1	1.0758388873047733e0	1.1921921921921923e0
4.104104104104105e1	-2.0862291611943613e0	-1.9396760306997485e0	8.03003003003003e-1	9.478842389079567e-1	1.078020952986153e0	1.1969969969969971e0
4.204204204204205e1	-2.088624588926356e0	-1.938556734653742e0	7.981981981981981e-1	9.469651430621504e-1	1.0802161805179473e0	1.201801801801802e0
4.304304304304305e1	-2.0910331213898203e0	-1.9374547948279193e0	7.933933933933933e-1	9.460634034365282e-1	1.0824245127812115e0	1.2066066066066066e0
4.404404404404405e1	-2.093454701472555e0	-1.9363702474281193e0	7.885885885885886e-1	9.45179056236928e-1	1.0846458926637461e0	1.2114114114114114e0
4.504504504504505e1	-2.0958892720737508e0	-1.9353031281297874e0	7.837837837837838e-1	9.443121371387968e-1	1.0868802630647423e0	1.2162162162162162e0
4.604604604604605e1	-2.0983367761085683e0	-1.934253472071851e0	7.789789789789789e-1	9.434626812810603e-1	1.089127566899359e0	1.221021021021021e0
4.704704704704705e1	-2.1007971565126575e0	-1.9332213138506456e0	7.741741741741741e-1	9.426307232600551e-1	1.0913877471032483e0	1.2258258258258259e0
4.804804804804805e1	-2.1032703562466164e0	-1.9322066875139183e0	7.693693693693693e-1	9.418162971235279e-1	1.0936607466370065e0	1.2306306306306307e0
4.904904904904905e1	-2.105756318300381e0	-1.9312096265548924e0	7.645645645645646e-1	9.410194363647022e-1	1.095946508490571e0	1.2354354354354355e0
5.0050050050050054e1	-2.1082549856975605e0	-1.9302301639064074e0	7.597597597597597e-1	9.402401739164175e-1	1.098244975687551e0	1.2402402402402402e0
5.1051051051051054e1	-2.1107663014997047e0	-1.9292683319351303e0	7.549549549549549e-1	9.394785421453402e-1	1.1005560912894945e0	1.2450450450450452e0
5.2052052052052055e1	-2.113290208810507e0	-1.9283241624358385e0	7.501501501501501e-1	9.387345728462491e-1	1.1028797984000964e0	1.2498498498498498e0
5.3053053053053056e1	-2.115826650779949e0	-1.92739768662579e0	7.453453453453454e-1	9.380082972364008e-1	1.105216040169338e0	1.2546546546546546e0
5.4054054054054056e1	-2.1183755706083818e0	-1.9264889351391634e0	7.405405405405405e-1	9.372997459499741e-1	1.1075647597975709e0	1.2594594594594595e0
5.505505505505506e1	-2.120936911550542e0	-1.925597938021581e0	7.357357357357357e-1	9.366089490325918e-1	1.1099259005395314e0	1.2642642642642643e0
5.6056056056056065e1	-2.12351061691951e0	-1.9247247247247248e0	7.309309309309309e-1	9.359359359359358e-1	1.1122994057082987e0	1.2690690690690691e0
5.7057057057057065e1	-2.126096630090593e0	-1.9238693241010296e0	7.26126126126126e-1	9.35280735512441e-1	1.114685218679182e0	1.273873873873874e0
5.8058058058058066e1	-2.128694894505168e0	-1.923031764398468e0	7.213213213213212e-1	9.346433760100795e-1	1.1170832828935564e0	1.2786786786786788e0
5.905905905905907e1	-2.1313053536744375e0	-1.9222120732554253e0	7.165165165165164e-1	9.340238850672373e-1	1.1194935418626257e0	1.2834834834834836e0
6.006006006006007e1	-2.1339279511831446e0	-1.9214102776956712e0	7.117117117117117e-1	9.33422289707683e-1	1.1219159391711326e0	1.2882882882882885e0
6.106106106106107e1	-2.1365626306932106e0	-1.920626404123417e0	7.069069069069068e-1	9.328386163356293e-1	1.1243504184809985e0	1.293093093093093e0
6.206206206206207e1	-2.139209335947318e0	-1.9198604783184807e0	7.021021021021021e-1	9.322728907308935e-1	1.1267969235349058e0	1.297897897897898e0
6.306306306306307e1	-2.1418680107724333e0	-1.9191125254315446e0	6.972972972972973e-1	9.317251380441572e-1	1.1292553981598208e0	1.3027027027027027e0
6.406406406406407e1	-2.1445385990832637e0	-1.9183825699795127e0	6.924924924924925e-1	9.311953827923254e-1	1.131725786270451e0	1.3075075075075075e0
6.506506506506507e1	-2.147221044885655e0	-1.9176706358409747e0	6.876876876876876e-1	9.306836488539876e-1	1.1342080318726417e0	1.3123123123123124e0
6.606606606606607e1	-2.1499152922799287e0	-1.916976746251774e0	6.828828828828828e-1	9.301899594649872e-1	1.1367020790667157e0	1.3171171171171172e0
6.706706706706707e1	-2.1526212854641624e0	-1.9163009238006803e0	6.78078078078078e-1	9.297143372140937e-1	1.139207872050749e0	1.321921921921922e0
6.806806806806807e1	-2.1553389687373987e0	-1.9156431904251718e0	6.732732732732732e-1	9.292568040387854e-1	1.141725355123785e0	1.3267267267267266e0
6.906906906906907e1	-2.1580682865028074e0	-1.9150035674073278e0	6.684684684684684e-1	9.288173812211418e-1	1.1442544726889934e0	1.3315315315315317e0
7.007007007007007e1	-2.1608091832707803e0	-1.9143820753698335e0	6.636636636636637e-1	9.283960893838477e-1	1.146795169256766e0	1.3363363363363363e0
7.107107107107107e1	-2.1635616036619663e0	-1.913778734272097e0	6.588588588588589e-1	9.279929484863114e-1	1.1493473894477526e0	1.3411411411411411e0
7.207207207207207e1	-2.166325492410256e0	-1.9131935634064856e0	6.54054054054054e-1	9.276079778208995e-1	1.151911077995842e0	1.345945945945946e0
7.307307307307308e1	-2.1691007943656917e0	-1.9126265813946706e0	6.492492492492492e-1	9.272411960092852e-1	1.1544861797510773e0	1.3507507507507508e0
7.407407407407408e1	-2.1718874544973374e0	-1.9120778061841037e0	6.444444444444444e-1	9.268926209989187e-1	1.1570726396825224e0	1.3555555555555556e0
7.507507507507508e1	-2.174685417896075e0	-1.911547255044602e0	6.396396396396395e-1	9.265622700596173e-1	1.1596704028810598e0	1.3603603603603605e0
7.607607607607608e1	-2.1774946297773576e0	-1.9110349445650594e0	6.348348348348347e-1	9.262501597802749e-1	1.1622794145621422e0	1.3651651651651653e0
7.707707707707708e1	-2.1803150354838916e0	-1.910540890650282e0	6.3003003003003e-1	9.259563060656975e-1	1.1648996200684765e0	1.36996996996997e0
7.807807807807808e1	-2.1831465804882733e0	-1.9100651085179443e0	6.252252252252252e-1	9.2568072413356e-1	1.167530964872658e0	1.374774774774775e0
7.907907907907908e1	-2.185989210395562e0	-1.9096076126956776e0	6.204204204204204e-1	9.254234285114933e-1	1.170173394579746e0	1.3795795795795796e0
8.008008008008008e1	-2.1888428709457974e0	-1.909168417018277e0	6.156156156156156e-1	9.251844330342929e-1	1.1728268549297816e0	1.3843843843843844e0
8.10810810810811e1	-2.1917075080164725e0	-1.9087475346250455e0	6.108108108108108e-1	9.249637508412617e-1	1.1754912918002562e0	1.3891891891891892e0
8.20820820820821e1	-2.1945830676249334e0	-1.908344977957261e0	6.06006006006006e-1	9.247613943736773e-1	1.178166651208517e0	1.393993993993994e0
8.30830830830831e1	-2.19746949593074e0	-1.907960758755777e0	6.012012012012011e-1	9.245773753723938e-1	1.180852879314123e0	1.3987987987987989e0
8.40840840840841e1	-2.2003667392379636e0	-1.9075948880587563e0	5.963963963963963e-1	9.24411704875573e-1	1.1835499224211468e0	1.4036036036036037e0
8.50850850850851e1	-2.2032747439974365e0	-1.907247376199532e0	5.915915915915915e-1	9.242643932165489e-1	1.1862577269804198e0	1.4084084084084085e0
8.60860860860861e1	-2.206193456808946e0	-1.90691823280461e0	5.867867867867866e-1	9.241354500218272e-1	1.1889762395917287e0	1.4132132132132134e0
8.70870870870871e1	-2.209122824423371e0	-1.9066074667918014e0	5.819819819819818e-1	9.240248842092188e-1	1.191705407005954e0	1.4180180180180182e0
8.80880880880881e1	-2.212062793744779e0	-1.9063150863684886e0	5.771771771771771e-1	9.239327039861058e-1	1.1944451761271617e0	1.4228228228228228e0
8.90890890890891e1	-2.215013311832457e0	-1.9060410990300314e0	5.723723723723723e-1	9.238589168478493e-1	1.1971954940146394e0	1.4276276276276278e0
9.00900900900901e1	-2.217974325902901e0	-1.9057855115583129e0	5.675675675675675e-1	9.238035295763312e-1	1.1999563078848827e0	1.4324324324324325e0
9.10910910910911e1	-2.2209457833317487e0	-1.9055483300204137e0	5.627627627627627e-1	9.237665482386318e-1	1.2027275651135307e0	1.4372372372372373e0
9.20920920920921e1	-2.223927631655672e0	-1.9053295597674307e0	5.579579579579579e-1	9.23747978185849e-1	1.2055092132372538e0	1.4420420420420421e0
9.30930930930931e1	-2.226919818574205e0	-1.9051292054334361e0	5.53153153153153e-1	9.237478240520548e-1	1.2083011999555864e0	1.446846846846847e0
9.40940940940941e1	-2.2299222919515325e0	-1.9049472709345725e0	5.483483483483482e-1	9.237660897533913e-1	1.2111034731327142e0	1.4516516516516518e0
9.50950950950951e1	-2.232934999818235e0	-1.9047837594682866e0	5.435435435435434e-1	9.238027784873055e-1	1.2139159807992161e0	1.4564564564564566e0
9.60960960960961e1	-2.2359578903729673e0	-1.9046386735127083e0	5.387387387387387e-1	9.238578927319272e-1	1.2167386711537485e0	1.4612612612612614e0
9.70970970970971e1	-2.2389909119841125e0	-1.9045120148261614e0	5.339339339339338e-1	9.239314342455807e-1	1.2195714925646928e0	1.466066066066066e0
9.80980980980981e1	-2.242034013191367e0	-1.9044037844468256e0	5.291291291291291e-1	9.24023404066445e-1	1.2224143935717477e0	1.4708708708708709e0
9.90990990990991e1	-2.2450871427073e0	-1.9043139826925297e0	5.243243243243243e-1	9.241338025123496e-1	1.22526732288748e0	1.4756756756756757e0
1.0010010010010011e2	-2.248150249418848e0	-1.904242609160692e0	5.195195195195195e-1	9.242626291807121e-1	1.2281302293988279e0	1.4804804804804805e0
1.0110110110110111e2	-2.2512232823887777e0	-1.9041896627283978e0	5.147147147147146e-1	9.24409882948618e-1	1.2310030621685577e0	1.4852852852852854e0
1.0210210210210211e2	-2.254306190857098e0	-1.9041551415526166e0	5.099099099099098e-1	9.245755619730373e-1	1.2338857704366772e0	1.4900900900900902e0
1.0310310310310311e2	-2.2573989242424255e0	-1.9041390430705682e0	5.05105105105105e-1	9.24759663691189e-1	1.2367783036218047e0	1.494894894894895e0
1.0410410410410411e2	-2.2605014321433137e0	-1.9041413640002172e0	5.003003003003001e-1	9.249621848210379e-1	1.2396806113224925e0	1.4996996996996999e0
1.0510510510510511e2	-2.263613664339532e0	-1.9041621003409157e0	4.9549549549549543e-1	9.251831213619368e-1	1.2425926433185113e0	1.5045045045045047e0
1.0610610610610611e2	-2.266735570793308e0	-1.904201247374187e0	4.906906906906906e-1	9.254224685954082e-1	1.2455143495720864e0	1.5093093093093093e0
1.0710710710710711e2	-2.269867101650515e0	-1.9042587996646434e0	4.8588588588588577e-1	9.256802210860647e-1	1.2484456802290944e0	1.5141141141141143e0
1.0810810810810811e2	-2.2730082072418445e0	-1.9043347510610444e0	4.8108108108108105e-1	9.259563726826664e-1	1.2513865856202229e0	1.518918918918919e0
1.0910910910910911e2	-2.2761588380838997e0	-1.9044290946975009e0	4.762762762762762e-1	9.26250916519323e-1	1.254337016262078e0	1.5237237237237238e0
1.1011011011011011e2	-2.2793189448802855e0	-1.9045418229948052e0	4.714714714714714e-1	9.265638450168274e-1	1.2572969228582633e0	1.5285285285285286e0
1.1111111111111111e2	-2.2824884785226334e0	-1.9046729276619092e0	4.6666666666666656e-1	9.268951498841314e-1	1.2602662563004117e0	1.5333333333333334e0
1.1211211211211213e2	-2.2856673900916027e0	-1.904822399697534e0	4.6186186186186173e-1	9.272448221199563e-1	1.263244967669181e0	1.5381381381381383e0
1.1311311311311313e2	-2.28885563085783e0	-1.904990229391918e0	4.570570570570569e-1	9.27612852014541e-1	1.2662330082352073e0	1.542942942942943e0
1.1411411411411413e2	-2.292053152282847e0	-1.9051764063287013e0	4.522522522522521e-1	9.27999229151524e-1	1.2692303294600242e0	1.547747747747748e0
1.1511511511511513e2	-2.295259906019966e0	-1.9053809193869364e0	4.4744744744744736e-1	9.284039424099597e-1	1.2722368829969428e0	1.5525525525525525e0
1.1611611611611613e2	-2.2984758439151136e0	-1.9056037567432484e0	4.426426426426425e-1	9.288269799664717e-1	1.2752526206918913e0	1.5573573573573576e0
1.1711711711711713e2	-2.301700918007647e0	-1.9058449058741114e0	4.378378378378377e-1	9.292683292975346e-1	1.278277494584224e0	1.5621621621621622e0
1.1811811811811813e2	-2.304935080531112e0	-1.9061043535582654e0	4.3303303303303287e-1	9.297279771818889e-1	1.2813114569074888e0	1.5669669669669672e0
1.1911911911911913e2	-2.308178283913986e0	-1.906382085879264e0	4.2822822822822815e-1	9.302059097030879e-1	1.2843544600901622e0	1.5717717717717719e0
1.2012012012012013e2	-2.3114304807803703e0	-1.906678088228149e0	4.234234234234233e-1	9.30702112252173e-1	1.2874064567563466e0	1.5765765765765767e0
1.2112112112112113e2	-2.3146916239506625e0	-1.9069923453062518e0	4.186186186186185e-1	9.312165695304758e-1	1.290467399726438e0	1.5813813813813815e0
1.2212212212212214e2	-2.317961666442176e0	-1.9073248411281245e0	4.1381381381381366e-1	9.31749265552549e-1	1.2935372420177516e0	1.5861861861861863e0
1.2312312312312314e2	-2.3212405614697484e0	-1.9076755590246e0	4.0900900900900894e-1	9.323001836492242e-1	1.296615936845124e0	1.5909909909909912e0
1.2412412412412414e2	-2.3245282624462984e0	-1.908044481645963e0	4.042042042042041e-1	9.328693064707883e-1	1.299703437621474e0	1.5957957957957958e0
1.2512512512512514e2	-2.327824722983358e0	-1.9084315909652676e0	3.993993993993993e-1	9.334566159902926e-1	1.3027996979583334e0	1.6006006006006008e0
1.2612612612612614e2	-2.331129896891574e0	-1.908836868281747e0	3.9459459459459445e-1	9.340620935069719e-1	1.3059046716663492e0	1.6054054054054054e0
1.2712712712712714e2	-2.334443738181177e0	-1.9092602942243682e0	3.8978978978978973e-1	9.346857196497935e-1	1.3090183127557509e0	1.6102102102102103e0
1.2812812812812814e2	-2.3377662010624136e0	-1.9097018487554935e0	3.849849849849849e-1	9.353274743811189e-1	1.3121405754367883e0	1.615015015015015e0
1.2912912912912915e2	-2.3410972399459626e0	-1.9101615111746564e0	3.8018018018017996e-1	9.359873370004825e-1	1.315271414120137e0	1.6198198198198202e0
1.3013013013013014e2	-2.344436809443304e0	-1.9106392601224649e0	3.7537537537537524e-1	9.366652861484908e-1	1.318410783417278e0	1.6246246246246248e0
1.3113113113113116e2	-2.3477848643670707e0	-1.9111350735846009e0	3.705705705705704e-1	9.373612998108269e-1	1.3215586381408446e0	1.6294294294294296e0
1.3213213213213214e2	-2.351141359731367e0	-1.9116489288959484e0	3.657657657657657e-1	9.380753553223746e-1	1.3247149333049406e0	1.6342342342342344e0
1.3313313313313316e2	-2.354506250752059e0	-1.9121808027448202e0	3.6096096096096075e-1	9.388074293714466e-1	1.327879624125432e0	1.6390390390390392e0
1.3413413413413414e2	-2.357879492847037e0	-1.9127306711772976e0	3.5615615615615603e-1	9.395574980041244e-1	1.3310526660202104e0	1.643843843843844e0
1.3513513513513516e2	-2.361261041636454e0	-1.913298509601677e0	3.513513513513512e-1	9.403255366287042e-1	1.334234014609428e0	1.6486486486486487e0
