magnetic field [G]	Energies [a.u.]
0e0	-1.0044504830026089e1	-1.0008169682960053e1	-5.955495169973914e0	-5.5e0	-4.491830317039945e0
5.005005005005005e-1	-1.004450499020429e1	-1.0008169693945636e1	-5.9556403628659e0	-5.499887756432353e0	-4.4917971965518095e0
1.001001001001001e0	-1.0044505470748824e1	-1.0008169726902445e1	-5.956075473755197e0	-5.499551498319556e0	-4.491697830273977e0
1.5015015015015016e0	-1.0044506271689347e1	-1.0008169781830686e1	-5.956799107216818e0	-5.498992635481963e0	-4.491532203781176e0
2.002002002002002e0	-1.0044507393075367e1	-1.0008169858730694e1	-5.957808963678046e0	-5.4982134914342655e0	-4.491300293081626e0
2.5025025025025025e0	-1.004450883497616e1	-1.000816995760295e1	-5.959101877543006e0	-5.497217265185458e0	-4.491002064692429e0
3.0030030030030033e0	-1.0044510597480816e1	-1.0008170078448074e1	-5.960673868487061e0	-5.496007979838978e0	-4.490637475745084e0
3.503503503503504e0	-1.0044512680698261e1	-1.000817022126681e1	-5.9625202040142815e0	-5.494590419899705e0	-4.49020647412095e0
4.004004004004004e0	-1.0044515084757265e1	-1.0008170386060044e1	-5.964635471052239e0	-5.49297005951388e0	-4.489708998616569e0
4.504504504504505e0	-1.0044517809806463e1	-1.0008170572828794e1	-5.967013654176811e0	-5.491152984049232e0	-4.4891449791386995e0
5.005005005005005e0	-1.0044520856014362e1	-1.0008170781574227e1	-5.9696482180138775e0	-5.489145807468704e0	-4.488514336928837e0
5.505505505505506e0	-1.0044524223569358e1	-1.0008171012297632e1	-5.972532191444878e0	-5.48695558787111e0	-4.487816984817033e0
6.0060060060060065e0	-1.0044527912679792e1	-1.0008171265000438e1	-5.9756582514277845e0	-5.48458974338729e0	-4.487052827504686e0
6.506506506506507e0	-1.004453192357401e1	-1.0008171539684216e1	-5.979018804509828e0	-5.48205597035583e0	-4.486221761876108e0
7.007007007007008e0	-1.0044536256500319e1	-1.000817183635066e1	-5.98260606442497e0	-5.479362165385674e0	-4.485323677338387e0
7.507507507507508e0	-1.0044540911727022e1	-1.0008172155001619e1	-5.986412124511127e0	-5.476516352571013e0	-4.48435845618923e0
8.008008008008009e0	-1.0044545889542567e1	-1.0008172495639048e1	-5.990429024025714e0	-5.4735266167803776e0	-4.483325974012299e0
8.508508508508509e0	-1.0044551190255456e1	-1.0008172858265075e1	-5.994648807763468e0	-5.47040104361644e0	-4.482226100099561e0
9.00900900900901e0	-1.0044556814194395e1	-1.0008173242881933e1	-5.999063578674221e0	-5.4671476663494225e0	-4.481058697900037e0
9.50950950950951e0	-1.0044562761708255e1	-1.0008173649491994e1	-6.003665543430541e0	-5.463774419874843e0	-4.479823625494352e0
1.001001001001001e1	-1.0044569033166216e1	-1.0008174078097785e1	-6.008447051102372e0	-5.460289101539214e0	-4.478520736094422e0
1.0510510510510512e1	-1.0044575628957721e1	-1.000817452870195e1	-6.013400625256527e0	-5.456699338516431e0	-4.477149878567395e0
1.1011011011011012e1	-1.0044582549492574e1	-1.0008175001307265e1	-6.018518989916704e0	-5.45301256130032e0	-4.47571089798315e0
1.1511511511511513e1	-1.0044589795201047e1	-1.0008175495916662e1	-6.0237950898974875e0	-5.44923598280049e0	-4.474203636184304e0
1.2012012012012013e1	-1.0044597366533907e1	-1.0008176012533166e1	-6.029222106070705e0	-5.445376582484419e0	-4.472627932377799e0
1.2512512512512513e1	-1.0044605263962437e1	-1.0008176551159993e1	-6.034793466138831e0	-5.441441094991808e0	-4.470983623746942e0
1.3013013013013014e1	-1.0044613487978555e1	-1.0008177111800444e1	-6.040502851485376e0	-5.437436002652873e0	-4.469270546082767e0
1.3513513513513514e1	-1.0044622039094879e1	-1.0008177694457983e1	-6.046344200650274e0	-5.433367531363464e0	-4.467488534433402e0
1.4014014014014016e1	-1.004463091784484e1	-1.0008178299136185e1	-6.052311709945249e0	-5.429241649303606e0	-4.4656374237701515e0
1.4514514514514516e1	-1.0044640124782626e1	-1.0008178925838777e1	-6.058399831683501e0	-5.425064068026337e0	-4.463717049668762e0
1.5015015015015017e1	-1.0044649660483461e1	-1.0008179574569606e1	-6.064603270453194e0	-5.420840245489277e0	-4.461727249004462e0
1.5515515515515517e1	-1.0044659525543524e1	-1.0008180245332676e1	-6.070916977817742e0	-5.41657539064701e0	-4.459667860659048e0
1.6016016016016017e1	-1.0044669720580115e1	-1.0008180938132078e1	-6.077336145780186e0	-5.412274469269306e0	-4.457538726238346e0
1.6516516516516518e1	-1.0044680246231714e1	-1.0008181652972075e1	-6.08385619930445e0	-5.407942210693531e0	-4.455339690798242e0
1.7017017017017018e1	-1.00446911031581e1	-1.000818238985705e1	-6.090472788145447e0	-5.403583115261922e0	-4.45307060357748e0
1.751751751751752e1	-1.0044702292040459e1	-1.0008183148791517e1	-6.09718177820144e0	-5.399201462231512e0	-4.450731318735085e0
1.801801801801802e1	-1.0044713813581424e1	-1.0008183929780119e1	-6.1039792425681805e0	-5.394801317979689e0	-4.44832169609058e0
1.851851851851852e1	-1.0044725668505254e1	-1.0008184732827633e1	-6.1108614524437055e0	-5.390386544358659e0	-4.445841601864755e0
1.901901901901902e1	-1.0044737857557896e1	-1.0008185557938964e1	-6.117824868005382e0	-5.385960807078857e0	-4.443290909418913e0
1.951951951951952e1	-1.0044750381507088e1	-1.0008186405119147e1	-6.124866129357959e0	-5.381527584025533e0	-4.440669499990286e0
2.002002002002002e1	-1.0044763241142505e1	-1.0008187274373348e1	-6.131982047630543e0	-5.377090173432147e0	-4.437977263421475e0
2.0520520520520524e1	-1.0044776437275875e1	-1.0008188165706873e1	-6.139169596283606e0	-5.372651701852205e0	-4.435214098881434e0
2.1021021021021024e1	-1.0044789970741077e1	-1.000818907912514e1	-6.146425902672311e0	-5.368215131885538e0	-4.432379915575932e0
2.1521521521521525e1	-1.0044803842394273e1	-1.0008190014633708e1	-6.153748239900092e0	-5.363783269627057e0	-4.429474633444863e0
2.2022022022022025e1	-1.0044818053114053e1	-1.000819097223826e1	-6.161134018986587e0	-5.3593587718168765e0	-4.426498183844247e0
2.2522522522522525e1	-1.0044832603801527e1	-1.0008191951944596e1	-6.168580781364998e0	-5.354944152678327e0	-4.423450510210567e0
2.3023023023023026e1	-1.0044847495380504e1	-1.0008192953758675e1	-6.176086191717833e0	-5.350541790437948e0	-4.4203315687050555e0
2.3523523523523526e1	-1.0044862728797622e1	-1.0008193977686549e1	-6.183648031153768e0	-5.346153933526384e0	-4.417141328835679e0
2.4024024024024026e1	-1.004487830502248e1	-1.0008195023734423e1	-6.19126419072435e0	-5.341782706464103e0	-4.413879774054667e0
2.4524524524524526e1	-1.004489422504776e1	-1.0008196091908612e1	-6.198932665275676e0	-5.337430115438734e0	-4.410546902329235e0
2.5025025025025027e1	-1.0044910489889428e1	-1.0008197182215563e1	-6.2066515476274855e0	-5.333098053583857e0	-4.4071427266836665e0
2.5525525525525527e1	-1.004492710058685e1	-1.000819829466185e1	-6.214419023070105e0	-5.328788305970714e0	-4.403667275710479e0
2.6026026026026027e1	-1.0044944058202997e1	-1.0008199429254176e1	-6.2222333641681375e0	-5.324502554325742e0	-4.400120594048959e0
2.6526526526526528e1	-1.0044961363824516e1	-1.000820058599935e1	-6.230092925858957e0	-5.320242381487959e0	-4.396502742829228e0
2.7027027027027028e1	-1.0044979018562001e1	-1.0008201764904335e1	-6.237996140833133e0	-5.31600927562041e0	-4.392813800080141e0
2.752752752752753e1	-1.0044997023550076e1	-1.0008202965976194e1	-6.245941515183769e0	-5.31180463419042e0	-4.389053861099548e0
2.8028028028028032e1	-1.0045015379947642e1	-1.0008204189222123e1	-6.253927624311474e0	-5.307629767733214e0	-4.3852230387855675e0
2.8528528528528533e1	-1.0045034088937967e1	-1.0008205434649435e1	-6.261953109071729e0	-5.303485903413335e0	-4.381321463927539e0
2.9029029029029033e1	-1.0045053151728993e1	-1.0008206702265579e1	-6.270016672151729e0	-5.299374188397878e0	-4.377349285455832e0
2.9529529529529533e1	-1.0045072569553373e1	-1.0008207992078107e1	-6.278117074663978e0	-5.29529569305513e0	-4.373306670649403e0
3.0030030030030034e1	-1.0045092343668802e1	-1.0008209304094711e1	-6.286253132944218e0	-5.291251413991575e0	-4.369193805300704e0
3.0530530530530534e1	-1.0045112475358088e1	-1.0008210638323195e1	-6.294423715541952e0	-5.28724227693968e0	-4.365010893837086e0
3.1031031031031034e1	-1.004513296592944e1	-1.000821199477148e1	-6.302627740392141e0	-5.283269139508151e0	-4.360758159398809e0
3.1531531531531535e1	-1.0045153816716638e1	-1.0008213373447598e1	-6.31086417215705e0	-5.2793327938054855e0	-4.356435843873237e0
3.2032032032032035e1	-1.0045175029079228e1	-1.0008214774359738e1	-6.3191320197281655e0	-5.275433968947399e0	-4.352044207885474e0
3.2532532532532535e1	-1.0045196604402772e1	-1.0008216197516155e1	-6.327430333878111e0	-5.271573333457346e0	-4.347583530745623e0
3.3033033033033036e1	-1.0045218544099018e1	-1.0008217642925272e1	-6.335758205053299e0	-5.267751497569146e0	-4.343054110353283e0
3.3533533533533536e1	-1.0045240849606138e1	-1.0008219110595586e1	-6.344114761298702e0	-5.263969015439831e0	-4.3384562630597605e0
3.4034034034034036e1	-1.0045263522389003e1	-1.0008220600535747e1	-6.352499166306227e0	-5.260226387280041e0	-4.333790323488993e0
3.453453453453454e1	-1.0045286563939323e1	-1.0008222112754492e1	-6.360910617579126e0	-5.256524061408942e0	-4.329056644318119e0
3.503503503503504e1	-1.004530997577595e1	-1.00082236472607e1	-6.369348344704887e0	-5.2528624362395435e0	-4.324255596018928e0
3.553553553553554e1	-1.0045333759445121e1	-1.0008225204063338e1	-6.377811607729924e0	-5.249241862200194e0	-4.3193875665614465e0
3.603603603603604e1	-1.004535791652062e1	-1.0008226783171507e1	-6.386299695629525e0	-5.245662643597094e0	-4.314452961081269e0
3.653653653653654e1	-1.0045382448604162e1	-1.0008228384594416e1	-6.394811924866999e0	-5.242125040422283e0	-4.309452201512155e0
3.703703703703704e1	-1.0045407357325523e1	-1.000823000834138e1	-6.403347638036471e0	-5.238629270110931e0	-4.304385726185696e0
3.753753753753754e1	-1.0045432644342897e1	-1.0008231654421834e1	-6.41190620258385e0	-5.235175509251553e0	-4.299253989399874e0
3.803803803803804e1	-1.0045458311343092e1	-1.000823332284533e1	-6.420487009601203e0	-5.2317638952518895e0	-4.29405746095849e0
3.853853853853854e1	-1.0045484360041822e1	-1.0008235013621517e1	-6.4290894726898475e0	-5.228394527963318e0	-4.288796625683507e0
3.903903903903904e1	-1.0045510792184025e1	-1.000823672676016e1	-6.437713026887677e0	-5.225067471265785e0	-4.2834719829023715e0
3.953953953953954e1	-1.0045537609544075e1	-1.000823846227113e1	-6.446357127657031e0	-5.221782754615258e0	-4.278084045912528e0
4.004004004004004e1	-1.0045564813926134e1	-1.0008240220164415e1	-6.455021249928895e0	-5.218540374555273e0	-4.272633341425281e0
4.054054054054055e1	-1.004559240716441e1	-1.0008242000450107e1	-6.463704887200354e0	-5.21534029619384e0	-4.267120408991285e0
4.104104104104105e1	-1.0045620391123474e1	-1.0008243803138397e1	-6.47240755068156e0	-5.212182454646732e0	-4.261545800409844e0
4.154154154154155e1	-1.0045648767698522e1	-1.00082456282396e1	-6.481128768489515e0	-5.209066756448076e0	-4.255910079124313e0
4.204204204204205e1	-1.0045677538815747e1	-1.000824747576411e1	-6.489868084885574e0	-5.205993080928792e0	-4.250213819605791e0
4.254254254254255e1	-1.0045706706432654e1	-1.0008249345722454e1	-6.498625059554047e0	-5.2029612815635025e0	-4.244457606727369e0
4.304304304304305e1	-1.0045736272538306e1	-1.0008251238125247e1	-6.507399266919433e0	-5.199971187286037e0	-4.2386420351309875e0
4.354354354354355e1	-1.0045766239153751e1	-1.00082531529832e1	-6.5161902954998565e0	-5.197022603774014e0	-4.23276770858917e0
4.404404404404405e1	-1.0045796608332303e1	-1.0008255090307154e1	-6.524997747294617e0	-5.194115314702398e0	-4.22683523936354e0
4.454454454454455e1	-1.0045827382159878e1	-1.000825705010801e1	-6.5338212372036715e0	-5.191249082966186e0	-4.220845247562242e0
4.504504504504505e1	-1.0045858562755397e1	-1.0008259032396815e1	-6.542660392477363e0	-5.18842365187233e0	-4.214798360498101e0
4.554554554554555e1	-1.0045890152271083e1	-1.0008261037184685e1	-6.551514852194342e0	-5.18563874630052e0	-4.208695212049399e0
4.604604604604605e1	-1.004592215289286e1	-1.0008263064482831e1	-6.560384266766165e0	-5.182894073833161e0	-4.202536442025011e0
4.654654654654655e1	-1.0045954566840678e1	-1.0008265114302585e1	-6.5692682974671e0	-5.1801893258541e0	-4.196322695535547e0
4.704704704704705e1	-1.0045987396368968e1	-1.0008267186655358e1	-6.578166615987359e0	-5.177524178616236e0	-4.190054622372093e0
4.754754754754755e1	-1.004602064376696e1	-1.0008269281552675e1	-6.58707890400872e0	-5.1748982942777735e0	-4.183732876393904e0
4.804804804804805e1	-1.004605431135908e1	-1.0008271399006125e1	-6.596004852801113e0	-5.172311321907138e0	-4.1773581149265615e0
4.854854854854855e1	-1.0046088401505392e1	-1.0008273539027421e1	-6.6049441628389465e0	-5.169762898456505e0	-4.1709309981717375e0
4.904904904904905e1	-1.0046122916601956e1	-1.0008275701628358e1	-6.613896543436122e0	-5.167252649703849e0	-4.1644521886297285e0
4.954954954954955e1	-1.0046157859081246e1	-1.0008277886820816e1	-6.622861712398605e0	-5.164780191163587e0	-4.157922350535759e0
5.0050050050050054e1	-1.0046193231412627e1	-1.0008280094616776e1	-6.631839395693639e0	-5.162345128965841e0	-4.1513421493111275e0
5.0550550550550554e1	-1.0046229036102716e1	-1.000828232502831e1	-6.64082932713466e0	-5.159947060704483e0	-4.144712251029839e0
5.1051051051051054e1	-1.0046265275695841e1	-1.0008284578067569e1	-6.649831248081021e0	-5.157585576253978e0	-4.1380333219015935e0
5.1551551551551555e1	-1.0046301952774511e1	-1.0008286853746796e1	-6.658844907151721e0	-5.155260258555326e0	-4.131306027771658e0
5.2052052052052055e1	-1.004633906995984e1	-1.0008289152078328e1	-6.667870059952317e0	-5.152970684371269e0	-4.124531033638255e0
5.2552552552552555e1	-1.0046376629912013e1	-1.0008291473074577e1	-6.676906468814513e0	-5.150716425011108e0	-4.117709003187798e0
5.3053053053053056e1	-1.0046414635330805e1	-1.0008293816748044e1	-6.685953902547412e0	-5.148497047025336e0	-4.110840598348397e0
5.3553553553553556e1	-1.0046453088955984e1	-1.0008296183111312e1	-6.695012136200171e0	-5.146312112870643e0	-4.103926478861903e0
5.4054054054054056e1	-1.0046491993567841e1	-1.000829857217706e1	-6.704080950835096e0	-5.144161181545439e0	-4.096967301874577e0
5.455455455455456e1	-1.0046531351987701e1	-1.000830098395802e1	-6.713160133310942e0	-5.142043809196697e0	-4.089963721546661e0
5.505505505505506e1	-1.004657116707839e1	-1.0008303418467033e1	-6.722249476075697e0	-5.139959549698225e0	-4.082916388680664e0
5.555555555555556e1	-1.0046611441744817e1	-1.0008305875717008e1	-6.7313487769683835e0	-5.13790795520122e0	-4.075825950368575e0
5.6056056056056065e1	-1.0046652178934423e1	-1.000830835572092e1	-6.740457839029479e0	-5.135888576657473e0	-4.068693049657714e0
5.6556556556556565e1	-1.0046693381637779e1	-1.0008310858491843e1	-6.749576470319419e0	-5.133900964315869e0	-4.0615183252351015e0
5.7057057057057065e1	-1.0046735052889101e1	-1.000831338404291e1	-6.75870448374488e0	-5.13194466819282e0	-4.0543024111302985e0
5.7557557557557566e1	-1.0046777195766806e1	-1.0008315932387333e1	-6.7678416968923685e0	-5.1300192385172965e0	-4.047045936436214e0
5.8058058058058066e1	-1.0046819813394096e1	-1.0008318503538403e1	-6.7769879318687165e0	-5.128124226150992e0	-4.039749525047793e0
5.8558558558558566e1	-1.0046862908939534e1	-1.000832109750947e1	-6.786143015148338e0	-5.1262591829845405e0	-4.032413795418123e0
5.905905905905907e1	-1.0046906485617633e1	-1.0008323714313963e1	-6.795306777426573e0	-5.1244236623101935e0	-4.025039360331644e0
5.955955955955957e1	-1.0046950546689422e1	-1.0008326353965385e1	-6.804479053479207e0	-5.122617219171956e0	-4.017626826694037e0
6.006006006006007e1	-1.0046995095463116e1	-1.0008329016477298e1	-6.813659682027563e0	-5.120839410693668e0	-4.010176795338356e0
6.056056056056057e1	-1.0047040135294703e1	-1.0008331701863334e1	-6.822848505609047e0	-5.119089796385947e0	-4.002689860846991e0
6.106106106106107e1	-1.0047085669588554e1	-1.0008334410137188e1	-6.8320453704528115e0	-5.117367938432552e0	-3.9951666113889073e0
6.156156156156157e1	-1.0047131701798136e1	-1.0008337141312627e1	-6.841250126360374e0	-5.115673401957084e0	-3.987607628571789e0
6.206206206206207e1	-1.0047178235426601e1	-1.0008339895403463e1	-6.850462626590911e0	-5.114005755270575e0	-3.980013487308457e0
6.256256256256257e1	-1.004722527402753e1	-1.0008342672423595e1	-6.859682727750929e0	-5.112364570100821e0	-3.9723847556971426e0
6.306306306306307e1	-1.0047272821205532e1	-1.0008345472386962e1	-6.868910289688252e0	-5.110749421804182e0	-3.964721994915078e0
6.356356356356357e1	-1.0047320880617017e1	-1.0008348295307568e1	-6.87814517539009e0	-5.1091598895604795e0	-3.9570257591248423e0
6.406406406406407e1	-1.0047369455970845e1	-1.0008351141199476e1	-6.887387250884867e0	-5.107595556551808e0	-3.949296595393002e0
6.456456456456458e1	-1.0047418551029098e1	-1.0008354010076799e1	-6.896636385147812e0	-5.106056010125855e0	-3.941535043620446e0
6.506506506506507e1	-1.0047468169607772e1	-1.0008356901953709e1	-6.905892450010003e0	-5.104540841944547e0	-3.9337416364839766e0
6.556556556556558e1	-1.004751831557757e1	-1.0008359816844436e1	-6.915155320070895e0	-5.103049648118561e0	-3.925916899388554e0
6.606606606606607e1	-1.0047568992864653e1	-1.0008362754763244e1	-6.9244248726138755e0	-5.1015820293284815e0	-3.9180613504297606e0
6.656656656656658e1	-1.0047620205451375e1	-1.0008365715724462e1	-6.933700987525046e0	-5.100137590933212e0	-3.910175500365921e0
6.706706706706707e1	-1.0047671957377164e1	-1.000836869974246e1	-6.942983547214827e0	-5.098715943066161e0	-3.902259852599385e0
6.756756756756758e1	-1.0047724252739263e1	-1.0008371706831674e1	-6.9522724365424375e0	-5.097316700720088e0	-3.8943149031665434e0
6.806806806806807e1	-1.0047777095693567e1	-1.0008374737006546e1	-6.961567542742997e0	-5.095939483820883e0	-3.886341140736023e0
6.856856856856858e1	-1.004783049045547e1	-1.000837779028159e1	-6.970868755357174e0	-5.094583917291109e0	-3.8783390466146455e0
6.906906906906907e1	-1.0047884441300743e1	-1.000838086667137e1	-6.980175966163408e0	-5.093249631103789e0	-3.870309094760679e0
6.956956956956958e1	-1.00479389525664e1	-1.0008383966190468e1	-6.989489069112292e0	-5.091936260326916e0	-3.862251751803938e0
7.007007007007007e1	-1.0047994028651505e1	-1.0008387088853516e1	-6.998807960263339e0	-5.090643445159304e0	-3.854167477072325e0
7.057057057057058e1	-1.0048049674018234e1	-1.000839023467517e1	-7.008132537723907e0	-5.089370830958315e0	-3.8460567226243665e0
7.107107107107107e1	-1.0048105893192677e1	-1.0008393403670151e1	-7.01746270159004e0	-5.088118068259775e0	-3.8379199332873775e0
7.157157157157158e1	-1.0048162690765796e1	-1.000839659585318e1	-7.026798353889429e0	-5.086884812790778e0	-3.8297575467008333e0
7.207207207207207e1	-1.0048220071394468e1	-1.0008399811239027e1	-7.036139398526203e0	-5.085670725475683e0	-3.8215699933646228e0
7.257257257257258e1	-1.0048278039802353e1	-1.00084030498425e1	-7.045485741227576e0	-5.0844754724357895e0	-3.8133576966918006e0
7.307307307307308e1	-1.0048336600780964e1	-1.0008406311678414e1	-7.054837289492115e0	-5.083298724983058e0	-3.805121073065441e0
7.357357357357358e1	-1.0048395759190674e1	-1.0008409596761634e1	-7.0641939525398785e0	-5.0821401596084135e0	-3.7968605318994055e0
7.407407407407408e1	-1.0048455519961717e1	-1.0008412905107038e1	-7.0735556412639236e0	-5.080999457964785e0	-3.788576475702539e0
7.457457457457458e1	-1.0048515888095318e1	-1.0008416236729522e1	-7.0829222681835295e0	-5.079876306845501e0	-3.780269300146137e0
7.507507507507508e1	-1.0048576868664693e1	-1.0008419591644017e1	-7.092293747398804e0	-5.078770398158189e0	-3.7719393941343196e0
7.557557557557558e1	-1.0048638466816167e1	-1.0008422969865467e1	-7.101669994546719e0	-5.077681428894614e0	-3.7635871398770306e0
7.607607607607608e1	-1.0048700687770383e1	-1.0008426371408836e1	-7.111050926758556e0	-5.07660910109675e0	-3.755212912965492e0
7.657657657657658e1	-1.0048763536823293e1	-1.00084297962891e1	-7.120436462618547e0	-5.075553121819344e0	-3.7468170824497213e0
7.707707707707708e1	-1.0048827019347453e1	-1.000843324452124e1	-7.129826522123902e0	-5.0745132030893645e0	-3.7384000109180415e0
7.757757757757759e1	-1.0048891140793168e1	-1.000843671612029e1	-7.139221026645886e0	-5.073489061862446e0	-3.729962054578217e0
7.807807807807808e1	-1.004895590668968e1	-1.0008440211101233e1	-7.148619898892261e0	-5.072480419976744e0	-3.721503563340098e0
